444	331	18	32
444	331	18	31
444	331	17	31
444	331	17	31
444	331	17	31
444	331	18	31
444	331	17	31
444	331	18	31
444	331	17	32
444	331	17	31
444	331	17	31
444	331	17	31
444	331	17	31
444	331	17	31
444	331	17	31
443	331	18	31
443	331	18	31
443	331	18	31
443	331	18	31
443	331	18	31
443	331	18	31
443	330	18	31
442	330	19	31
442	330	19	32
442	329	19	32
442	329	18	32
442	328	19	32
442	328	19	32
442	328	19	33
442	327	19	34
442	327	19	34
442	326	19	34
442	326	19	35
442	325	19	35
442	325	19	35
442	324	19	35
442	324	19	35
442	322	19	37
442	322	19	38
442	322	19	37
443	321	20	37
443	319	20	37
443	319	21	36
444	319	21	36
444	318	22	35
444	318	23	35
446	317	23	35
448	319	23	33
449	319	23	33
450	319	23	34
451	319	22	35
452	318	22	33
454	320	22	34
455	319	21	35
456	319	20	36
458	320	19	36
458	316	22	35
458	317	21	36
460	320	21	37
461	320	21	37
462	319	23	37
463	320	22	36
464	319	23	37
466	319	22	37
468	318	22	37
469	319	22	37
471	319	23	36
471	317	23	37
473	318	24	37
474	318	24	38
475	318	25	37
476	318	25	36
477	317	26	37
478	318	26	37
480	318	26	38
482	317	27	38
485	318	26	37
486	314	26	39
488	317	24	37
489	317	24	38
491	315	24	38
492	315	24	39
492	314	25	39
494	314	25	39
496	316	24	39
497	317	25	39
498	317	26	39
500	317	26	39
502	317	25	39
504	317	24	39
504	316	26	39
506	315	26	39
507	314	26	40
507	314	27	40
508	313	27	39
510	313	28	40
512	314	28	40
514	315	29	40
516	315	28	40
517	315	29	40
519	314	29	40
522	315	28	39
523	315	27	39
524	315	26	39
525	314	26	40
527	313	27	41
528	313	27	40
530	313	27	41
531	313	27	40
533	315	26	41
533	314	27	41
535	315	27	41
536	316	28	40
537	315	28	40
539	315	27	40
540	314	28	40
541	314	29	41
542	313	28	41
545	314	28	42
546	313	29	42
545	312	30	41
548	313	31	42
549	314	32	42
551	313	32	42
552	314	33	42
554	314	33	43
556	314	31	43
557	314	31	42
559	315	30	42
561	314	29	42
562	314	29	42
564	314	29	42
564	315	29	42
566	315	29	42
568	316	28	42
569	316	28	43
570	316	28	43
571	317	28	43
571	317	28	42
573	316	28	42
574	316	28	42
576	316	28	41
577	317	28	40
578	317	29	41
579	316	29	41
579	316	29	41
581	316	30	41
584	316	30	41
585	317	29	41
586	318	29	41
585	317	30	41
587	317	30	41
589	317	30	41
590	317	29	41
590	317	29	40
592	318	28	40
593	318	29	40
595	317	28	39
596	318	28	39
596	319	28	39
597	319	28	39
599	319	28	39
600	319	28	39
601	321	27	39
599	318	29	41
600	318	29	41
601	317	30	42
604	318	29	42
604	317	30	42
605	317	29	42
605	317	29	42
607	318	29	42
608	317	29	42
608	317	29	42
609	317	29	42
609	318	29	41
609	318	28	40
610	318	28	40
611	319	27	40
611	319	28	39
611	320	28	39
612	321	27	38
612	321	26	38
611	321	26	38
611	321	26	38
611	322	26	38
612	323	26	38
612	324	25	37
612	323	26	37
612	324	25	36
612	325	25	36
611	325	25	36
612	325	25	35
612	325	25	35
612	326	25	35
612	327	24	33
613	327	24	32
613	327	24	33
613	327	24	33
612	328	24	32
613	327	24	33
613	327	24	33
613	327	24	33
612	327	24	33
613	327	24	33
613	328	24	33
613	328	24	32
612	328	24	32
613	328	24	32
613	329	24	32
613	328	25	32
613	328	25	32
613	328	25	32
613	328	25	32
613	328	25	32
613	327	25	33
613	328	25	32
613	329	25	32
614	329	25	32
614	329	25	32
614	329	25	32
613	329	25	32
614	329	25	32
614	330	25	32
614	329	25	32
614	329	25	32
614	329	25	32
614	330	24	32
615	329	25	32
614	329	24	32
614	329	25	32
614	330	24	32
614	329	25	32
615	330	25	32
615	329	25	32
615	329	24	32
615	329	24	32
615	330	24	31
614	329	24	32
614	330	24	31
614	329	24	32
615	330	24	31
615	330	24	31
615	329	24	32
615	329	24	32
615	329	24	31
615	329	24	31
615	329	25	32
615	330	24	32
615	330	24	32
615	330	24	31
614	329	24	32
615	330	24	32
615	330	24	32
615	330	24	32
615	330	25	32
615	329	24	32
615	329	24	32
615	330	24	32
615	330	24	32
615	330	24	32
615	330	24	32
615	330	24	32
615	330	24	32
615	330	24	32
615	330	24	32
615	330	24	32
615	330	23	32
616	330	23	32
615	330	23	31
616	330	23	31
615	329	23	32
616	331	23	31
615	330	23	31
616	331	23	31
616	330	23	31
616	330	23	31
616	330	23	31
616	330	23	31
615	330	24	31
615	330	23	31
615	330	23	31
615	330	23	31
615	330	24	32
615	329	24	32
615	330	24	32
615	329	24	32
615	330	24	32
615	330	24	31
615	329	24	32
615	330	24	32
616	330	24	32
615	330	24	32
615	330	24	32
615	330	23	31
615	330	23	31
615	331	23	31
616	330	24	31
615	330	24	31
615	330	23	31
615	331	23	31
615	330	24	31
615	331	23	31
616	331	23	31
615	330	23	31
615	330	24	31
616	330	24	31
615	331	23	31
615	330	24	31
615	330	23	31
615	330	24	31
615	330	23	31
615	331	23	31
615	331	23	30
615	330	23	31
615	330	24	31
615	330	24	32
616	330	23	31
616	331	23	31
616	331	23	31
616	331	23	31
616	331	23	31
616	331	23	31
616	331	23	31
616	331	22	30
616	331	23	30
615	331	23	30
616	331	23	31
616	331	23	31
616	331	23	31
616	331	23	31
615	331	23	31
616	331	23	31
615	331	22	31
616	331	23	31
615	330	23	31
616	330	24	31
616	331	23	31
616	331	23	31
616	331	23	31
615	331	23	31
615	331	23	31
616	330	24	31
615	331	23	31
615	330	23	31
616	331	23	31
616	331	23	31
615	331	23	31
616	331	23	31
615	331	23	31
616	331	23	31
616	331	23	31
616	331	23	31
616	331	23	31
616	331	23	31
616	331	23	31
615	331	23	31
616	331	23	31
615	331	23	31
616	330	23	31
616	330	23	32
616	331	23	31
615	331	23	31
615	331	23	31
616	331	23	31
616	331	23	31
616	331	23	31
616	331	23	31
615	331	23	31
616	331	23	31
616	331	23	31
616	331	23	31
616	331	22	31
615	331	23	31
615	331	23	31
615	331	22	31
616	331	23	31
615	331	23	31
616	331	23	31
615	331	23	31
615	331	23	31
615	331	23	31
615	331	23	31
615	330	24	32
615	331	23	32
615	331	23	32
615	331	24	32
615	330	24	32
614	330	23	32
615	330	23	32
614	330	23	32
613	330	23	33
613	330	23	32
613	330	23	33
613	329	23	33
613	329	23	34
613	327	23	35
613	327	23	35
612	326	24	35
613	326	23	35
613	325	24	36
613	326	23	36
613	324	23	36
614	322	23	37
613	321	23	39
614	321	24	38
613	321	24	38
614	320	24	39
614	319	25	40
614	319	25	39
614	319	25	40
615	318	25	40
615	318	25	40
615	317	25	40
616	317	25	40
615	317	25	40
616	318	25	40
616	318	26	40
617	317	26	39
618	316	26	39
617	317	26	40
618	317	25	39
618	317	26	40
618	317	26	40
619	317	25	40
619	316	26	40
619	318	26	39
619	316	26	40
620	316	25	40
620	317	25	39
620	317	25	39
621	316	25	39
621	317	25	39
621	317	25	39
622	316	25	40
622	316	25	39
622	316	25	40
623	316	25	39
623	317	25	39
624	316	25	40
624	316	25	40
624	317	25	40
625	318	25	39
625	318	25	39
626	318	25	39
626	316	26	39
626	317	26	39
627	316	26	39
627	317	26	39
627	317	26	39
628	316	26	40
627	316	26	40
627	316	26	40
627	316	26	40
628	315	26	41
628	316	25	41
627	316	26	41
628	316	26	40
628	317	26	40
628	316	25	40
629	316	25	40
628	316	25	40
628	316	25	40
628	315	25	40
627	315	25	40
627	315	25	40
627	315	25	40
627	314	26	41
627	315	26	41
627	315	25	40
627	315	25	40
627	314	25	39
627	315	25	39
627	315	24	39
626	315	24	39
627	315	25	40
626	315	25	41
626	316	25	41
626	314	25	40
625	315	25	40
624	316	25	40
624	316	26	41
623	315	26	41
622	316	25	39
621	315	26	40
621	315	26	40
620	314	26	40
620	314	26	40
618	314	26	40
619	314	26	40
618	314	26	40
618	314	26	40
617	315	26	40
617	315	25	39
616	313	26	39
616	314	26	39
615	314	26	39
614	315	26	39
614	314	26	39
614	314	26	40
614	315	25	40
613	315	25	41
613	315	25	40
612	316	26	39
612	316	26	40
611	316	26	40
611	315	26	40
609	315	26	39
608	314	27	39
607	314	27	39
607	314	27	40
605	313	27	40
605	313	27	41
604	314	27	40
603	313	27	40
603	314	27	40
603	313	27	40
602	313	27	41
601	314	27	40
601	313	27	40
600	313	28	41
601	314	27	41
600	314	27	40
599	314	28	40
598	314	28	40
599	315	27	40
599	314	28	39
598	315	28	39
598	316	28	39
597	317	28	38
596	317	28	38
596	317	28	39
595	317	28	38
595	317	28	38
595	318	27	38
596	318	27	38
595	319	27	38
595	319	27	38
595	320	25	37
595	320	25	37
595	320	25	37
595	321	25	37
596	320	24	37
596	321	24	37
596	321	24	37
596	321	24	37
596	322	23	36
596	322	23	36
596	323	23	36
596	323	23	35
596	323	23	35
596	323	23	35
596	324	23	35
597	324	23	34
596	325	23	33
596	324	23	33
597	324	23	33
597	325	23	33
596	325	22	32
596	325	22	32
596	325	23	32
597	325	23	32
597	325	23	32
597	325	23	33
597	326	23	33
597	326	23	33
597	326	23	32
597	326	23	33
597	325	23	33
597	326	23	33
597	326	23	32
597	326	23	32
596	326	23	33
597	326	23	32
598	326	23	32
600	325	19	35
598	326	23	31
599	323	19	34
598	326	23	32
598	327	23	32
598	327	23	32
598	327	23	32
598	327	23	31
599	327	22	31
598	327	22	32
599	327	22	31
599	327	22	32
599	328	21	32
600	327	21	32
601	328	21	31
600	327	19	34
599	327	23	33
598	327	23	34
598	327	23	34
598	327	23	34
599	327	23	34
598	327	24	35
602	327	20	36
599	327	24	35
602	328	23	34
606	327	21	37
603	330	23	36
606	330	22	35
602	329	25	35
606	331	23	34
606	330	24	34
606	330	24	34
605	329	25	35
606	329	24	35
607	329	24	35
606	330	24	35
607	330	24	34
608	330	24	35
607	329	25	35
610	331	23	36
608	329	25	38
608	328	25	37
609	329	25	39
610	329	25	39
610	329	25	39
610	328	25	39
612	328	24	38
611	328	25	37
611	328	25	38
612	329	27	38
614	330	26	39
615	330	26	38
616	330	27	38
618	330	26	38
620	330	26	38
620	329	27	38
619	329	27	38
621	330	27	37
620	329	28	38
621	329	28	37
621	329	27	37
623	330	27	37
624	331	26	36
622	330	27	38
623	331	27	38
626	330	27	38
625	330	27	38
625	331	26	37
624	330	26	36
615	330	26	38
609	330	26	40
599	329	26	41
593	329	25	40
588	330	25	40
587	330	25	38
586	330	25	39
587	331	25	39
587	330	26	39
589	331	25	39
589	333	27	40
594	334	25	38
593	333	26	38
594	333	27	39
595	333	26	36
596	334	26	36
596	333	27	37
598	334	26	36
597	334	27	36
599	335	26	36
597	333	27	36
597	334	28	36
597	335	27	37
599	335	27	37
601	336	26	37
602	335	26	37
602	335	26	38
602	333	26	40
602	332	27	39
601	333	27	40
604	333	26	39
604	333	27	38
607	334	26	38
607	334	26	38
609	336	26	39
609	335	28	39
612	337	27	38
612	336	27	39
614	337	27	39
617	337	26	38
620	337	26	35
618	336	28	36
618	336	28	36
619	337	28	36
619	337	27	36
619	336	27	37
620	337	28	37
622	339	27	36
622	339	28	37
624	339	27	36
626	339	27	37
626	339	26	37
627	339	26	38
628	339	25	38
627	338	26	39
627	338	27	38
627	337	26	38
628	336	26	36
630	338	25	36
632	338	25	36
633	339	26	37
634	339	26	37
636	339	26	37
636	340	27	37
638	340	27	37
641	339	26	37
642	340	26	37
643	340	26	36
642	340	27	35
642	340	28	36
642	340	28	36
643	339	29	36
643	339	29	37
644	340	28	37
644	340	29	38
644	340	29	37
645	341	29	37
649	341	27	37
649	341	26	38
650	340	25	38
650	339	26	38
651	339	26	39
650	338	27	39
651	338	27	39
652	340	26	39
653	340	27	38
654	341	27	38
658	341	26	38
659	341	26	38
659	341	27	38
662	342	27	39
665	343	25	38
666	343	26	38
669	344	24	36
669	344	25	35
668	343	26	36
666	342	28	36
667	342	28	36
667	342	29	37
668	342	28	37
670	344	28	37
668	342	29	39
671	342	29	39
673	344	27	39
673	344	28	39
672	343	28	40
674	342	27	40
674	342	27	41
674	342	28	42
674	339	28	43
674	339	28	42
676	339	27	40
678	340	26	40
679	338	27	40
680	339	27	40
681	343	27	41
683	343	29	41
685	342	29	41
687	343	28	42
689	343	28	43
690	343	28	42
690	343	30	41
692	343	29	40
691	344	29	40
693	344	29	39
693	344	29	39
693	344	29	39
695	345	29	39
694	345	29	39
697	346	28	39
697	346	29	39
702	346	26	39
700	346	27	41
700	345	28	41
700	344	28	41
699	344	28	41
701	344	28	41
702	344	27	41
702	341	27	39
703	340	28	40
704	342	28	41
706	342	29	42
707	344	29	42
709	345	29	42
711	345	29	42
712	345	29	42
716	347	28	41
718	348	28	40
720	348	27	39
720	346	28	39
719	345	29	39
717	343	30	40
721	346	29	39
720	348	30	39
719	347	30	39
723	348	29	38
724	349	29	38
725	349	28	39
728	350	27	39
728	347	27	39
729	348	26	40
729	348	26	39
727	348	28	40
729	346	26	39
729	346	26	39
728	345	27	39
725	347	27	40
716	350	27	40
704	351	27	39
692	350	27	40
681	347	28	40
682	345	27	41
682	345	28	41
684	346	27	39
686	345	27	39
686	344	28	39
686	345	28	38
687	343	29	38
684	342	30	39
685	341	30	38
686	342	29	39
687	342	30	39
687	343	30	39
689	342	29	39
690	344	30	40
691	345	29	41
693	344	29	42
693	345	29	43
693	344	30	43
693	344	30	43
694	344	29	41
695	341	29	41
696	341	29	41
698	343	30	40
701	343	29	40
702	343	29	40
704	344	31	42
706	346	32	44
708	344	31	44
708	344	31	44
709	344	32	44
711	344	32	43
713	343	33	44
711	342	33	44
712	341	32	44
713	342	32	43
716	343	32	43
717	344	32	43
718	343	32	44
719	344	32	44
720	344	32	45
723	344	31	47
725	345	31	47
724	345	32	47
724	345	32	48
725	345	33	47
726	344	32	47
728	346	32	49
728	346	33	49
729	344	33	49
732	346	32	48
734	345	33	49
736	346	33	49
738	347	34	49
740	348	35	52
742	348	35	52
745	347	36	50
744	345	37	51
747	346	36	49
747	344	35	48
749	346	35	48
750	345	35	49
750	347	36	48
754	346	35	47
754	347	36	49
756	348	36	49
757	348	37	51
761	349	35	50
761	349	35	52
762	348	34	51
762	348	35	52
763	348	34	51
765	347	33	50
765	349	32	51
767	349	33	50
768	347	33	51
770	348	34	52
773	348	34	50
773	347	34	51
775	350	34	53
777	349	35	52
782	350	36	52
784	351	36	52
784	349	37	51
784	346	37	52
786	347	37	52
788	348	38	52
789	349	37	51
791	348	36	51
792	348	36	51
793	348	36	51
795	350	37	52
796	351	37	52
799	350	36	53
802	351	35	53
802	353	36	56
803	349	35	55
805	349	34	54
807	351	33	54
808	353	32	54
810	351	32	55
814	351	32	56
814	350	33	56
816	352	32	57
818	351	33	55
821	353	32	55
823	353	33	57
826	355	35	58
829	355	35	57
831	352	35	55
833	352	36	54
834	351	37	53
836	350	37	54
838	351	37	53
841	354	37	52
841	351	36	53
843	354	36	53
846	353	36	53
848	352	36	53
849	352	36	53
850	354	36	55
853	355	36	57
854	354	34	59
857	355	32	59
858	354	32	57
860	356	31	57
861	353	31	55
865	354	31	55
867	355	32	55
869	355	31	54
871	358	32	56
874	355	32	55
877	355	32	56
878	360	34	57
881	359	34	57
884	360	35	56
887	355	36	56
891	355	38	53
892	354	39	54
895	354	41	54
897	355	40	54
896	356	39	54
901	356	39	54
901	356	39	55
905	357	39	54
908	357	38	55
907	357	38	56
908	359	39	60
909	359	39	61
910	357	39	61
913	358	39	61
911	358	39	58
917	361	39	62
917	357	39	60
918	368	39	63
920	360	38	62
918	367	39	63
921	365	36	66
920	361	37	63
917	362	38	63
906	361	38	62
903	361	37	61
888	361	39	59
886	361	39	58
885	363	39	56
885	362	39	55
887	362	39	55
880	362	39	57
874	363	40	56
867	363	39	55
857	364	40	56
849	364	40	58
832	366	39	61
828	363	37	59
826	363	34	58
823	365	34	58
821	369	34	61
803	365	37	57
791	365	39	57
782	379	40	59
769	368	41	59
768	369	40	60
771	378	42	62
773	377	42	61
775	377	43	62
782	385	41	60
778	385	42	62
777	388	39	63
777	393	38	65
778	391	37	67
780	387	37	65
781	377	38	62
777	382	39	64
765	389	41	66
756	389	41	65
749	389	41	65
746	393	39	64
751	390	36	62
756	392	36	64
757	392	36	66
758	395	36	69
760	389	34	67
760	387	32	64
760	388	31	64
761	392	32	63
762	390	33	62
763	388	34	62
770	392	35	62
775	390	36	61
777	393	36	62
783	392	37	61
787	395	36	63
794	391	35	62
799	395	32	64
802	391	34	66
806	391	35	69
809	393	39	70
817	391	40	66
817	388	41	64
818	390	41	65
816	389	42	64
813	390	42	63
812	388	42	64
811	387	43	65
812	387	44	67
815	386	45	70
819	390	44	72
826	390	40	75
829	390	38	76
831	388	37	76
834	386	37	75
837	387	40	75
840	386	43	77
841	387	45	77
843	388	48	80
846	387	47	81
